x,y
2.000000000000000000e+02,1.125653188907236029e+02
2.009009009009008935e+02,1.023707394279437040e+02
2.018018018018018154e+02,1.012287607364087165e+02
2.027027027027027088e+02,1.058427620937238203e+02
2.036036036036036023e+02,1.048106608050918851e+02
2.045045045045044958e+02,1.039537282740015627e+02
2.054054054054054177e+02,1.053595648703032879e+02
2.063063063063063112e+02,1.032834785746573516e+02
2.072072072072072046e+02,1.073253747320961224e+02
2.081081081081080981e+02,1.050499548194589323e+02
2.090090090090090200e+02,1.042360787462733356e+02
2.099099099099099135e+02,1.078055552495013245e+02
2.108108108108108070e+02,1.029654660734879741e+02
2.117117117117117004e+02,1.083690819662462843e+02
2.126126126126126223e+02,1.037575682175769458e+02
2.135135135135135158e+02,1.008795737875567085e+02
2.144144144144144093e+02,1.060536730860566053e+02
2.153153153153153028e+02,1.069235811693195899e+02
2.162162162162162247e+02,9.531333398732967055e+01
2.171171171171171181e+02,1.056387743782248805e+02
2.180180180180180116e+02,1.076824266619486394e+02
2.189189189189189051e+02,1.072918941124138428e+02
2.198198198198198270e+02,1.072636842585732353e+02
2.207207207207207205e+02,1.086856278137429825e+02
2.216216216216216139e+02,1.037790198737254883e+02
2.225225225225225358e+02,9.613055591305547409e+01
2.234234234234234293e+02,1.111429866355150864e+02
2.243243243243243228e+02,1.137330288479576552e+02
2.252252252252252163e+02,1.066553068096193329e+02
2.261261261261261382e+02,1.124461775216230990e+02
2.270270270270270316e+02,1.132352885160591427e+02
2.279279279279279251e+02,1.136377685670484965e+02
2.288288288288288186e+02,1.190225081523407340e+02
2.297297297297297405e+02,1.011077603193181602e+02
2.306306306306306340e+02,1.111479490568168416e+02
2.315315315315315274e+02,1.116722876260607080e+02
2.324324324324324493e+02,1.107007829088942827e+02
2.333333333333333428e+02,1.062051987763913985e+02
2.342342342342342363e+02,1.077906290129958222e+02
2.351351351351351298e+02,1.114394218088806952e+02
2.360360360360360232e+02,1.193612322927263989e+02
2.369369369369369451e+02,1.120371651088428422e+02
2.378378378378378386e+02,1.004669599864422622e+02
2.387387387387387321e+02,1.103814763346497898e+02
2.396396396396396540e+02,1.128790396351629255e+02
2.405405405405405475e+02,1.088625533887850878e+02
2.414414414414414409e+02,1.155871912007152673e+02
2.423423423423423344e+02,1.156841550034294244e+02
2.432432432432432279e+02,1.204612386678880114e+02
2.441441441441441498e+02,1.084906204361234359e+02
2.450450450450450433e+02,1.216999677392726511e+02
2.459459459459459367e+02,1.147152153938458099e+02
2.468468468468468586e+02,1.062509957728213408e+02
2.477477477477477521e+02,1.127681990587300902e+02
2.486486486486486456e+02,1.180761019522161774e+02
2.495495495495495675e+02,1.170195182290118510e+02
2.504504504504504609e+02,1.209135993624394985e+02
2.513513513513513544e+02,1.244066240973537703e+02
2.522522522522522479e+02,1.238023607907833537e+02
2.531531531531531414e+02,1.145193448775470273e+02
2.540540540540540633e+02,1.152713029336466661e+02
2.549549549549549567e+02,1.182093744696436630e+02
2.558558558558558502e+02,1.229572662508018652e+02
2.567567567567567721e+02,1.279991310640261162e+02
2.576576576576576372e+02,1.324909931269320111e+02
2.585585585585585591e+02,1.173712122237146644e+02
2.594594594594594810e+02,1.180923028686221414e+02
2.603603603603603460e+02,1.296913858220730447e+02
2.612612612612612679e+02,1.177603978573335155e+02
2.621621621621621898e+02,1.386282972440142771e+02
2.630630630630630549e+02,1.243947695015136219e+02
2.639639639639639768e+02,1.195556327662064291e+02
2.648648648648648987e+02,1.335977504546058867e+02
2.657657657657657637e+02,1.276407114693096077e+02
2.666666666666666856e+02,1.181769130407649158e+02
2.675675675675675507e+02,1.388250667258066642e+02
2.684684684684684726e+02,1.318520855462426766e+02
2.693693693693693376e+02,1.379117182210666215e+02
2.702702702702702595e+02,1.335557919634044879e+02
2.711711711711711814e+02,1.338304154799929506e+02
2.720720720720720465e+02,1.420270342030134429e+02
2.729729729729729684e+02,1.449586664611883862e+02
2.738738738738738903e+02,1.552492373163341028e+02
2.747747747747747553e+02,1.435444778285925338e+02
2.756756756756756772e+02,1.506338349749825056e+02
2.765765765765765991e+02,1.516415759204884921e+02
2.774774774774774642e+02,1.570610057645208713e+02
2.783783783783783861e+02,1.566591520818220999e+02
2.792792792792793080e+02,1.635549771859095642e+02
2.801801801801801730e+02,1.596037177013137693e+02
2.810810810810810949e+02,1.679474744335352057e+02
2.819819819819820168e+02,1.714397237727823438e+02
2.828828828828828819e+02,1.750925846795363441e+02
2.837837837837838038e+02,1.807483258346159403e+02
2.846846846846846688e+02,1.884169922098002985e+02
2.855855855855855907e+02,1.872647254388756721e+02
2.864864864864864558e+02,2.031252141391090618e+02
2.873873873873873777e+02,2.066072468804878497e+02
2.882882882882882996e+02,2.005457161328335474e+02
2.891891891891891646e+02,2.081582284615325307e+02
2.900900900900900865e+02,2.256173326558943870e+02
2.909909909909910084e+02,2.343326808544591984e+02
2.918918918918918735e+02,2.442479994958694078e+02
2.927927927927927954e+02,2.421373523040772398e+02
2.936936936936937173e+02,2.520164114191209705e+02
2.945945945945945823e+02,2.678144301879138425e+02
2.954954954954955042e+02,2.775809486915900948e+02
2.963963963963964261e+02,2.636542578288321010e+02
2.972972972972972912e+02,2.857938462227739365e+02
2.981981981981982130e+02,2.904840684612249788e+02
2.990990990990991349e+02,2.905936978152655001e+02
3.000000000000000000e+02,2.899064950659781630e+02
3.009009009009009219e+02,3.029644267286574291e+02
3.018018018018017870e+02,3.086824875775558894e+02
3.027027027027027088e+02,3.091124328747307572e+02
3.036036036036035739e+02,2.981563137042992366e+02
3.045045045045044958e+02,2.933679480012538647e+02
3.054054054054054177e+02,2.932139896087501825e+02
3.063063063063062827e+02,2.913753167894420244e+02
3.072072072072072046e+02,2.885068477763140322e+02
3.081081081081081265e+02,2.686711612049867313e+02
3.090090090090089916e+02,2.715678489958182809e+02
3.099099099099099135e+02,2.624601763732857194e+02
3.108108108108108354e+02,2.552923510389253465e+02
3.117117117117117004e+02,2.406231527194539410e+02
3.126126126126126223e+02,2.373906913455106178e+02
3.135135135135135442e+02,2.224280092259104435e+02
3.144144144144144093e+02,2.171497215061681345e+02
3.153153153153153312e+02,2.208163541531562259e+02
3.162162162162162531e+02,2.023396819192923886e+02
3.171171171171171181e+02,2.132758133882195466e+02
3.180180180180180400e+02,1.914003906385472078e+02
3.189189189189189051e+02,1.854962262988024406e+02
3.198198198198198270e+02,1.746774182775524764e+02
3.207207207207206920e+02,1.736784435527015660e+02
3.216216216216216139e+02,1.708157560096436782e+02
3.225225225225225358e+02,1.772930726776025381e+02
3.234234234234234009e+02,1.638609313762735269e+02
3.243243243243243228e+02,1.608365376478740529e+02
3.252252252252252447e+02,1.586605919184158324e+02
3.261261261261261097e+02,1.612308706360617805e+02
3.270270270270270316e+02,1.561648616102523590e+02
3.279279279279279535e+02,1.473964290961751544e+02
3.288288288288288186e+02,1.511260343749670767e+02
3.297297297297297405e+02,1.502567625556241921e+02
3.306306306306306624e+02,1.533671058987720244e+02
3.315315315315315274e+02,1.576642055649392944e+02
3.324324324324323925e+02,1.432365625608551909e+02
3.333333333333333712e+02,1.369294703534716575e+02
3.342342342342342363e+02,1.340534397586243358e+02
3.351351351351351013e+02,1.471239212405114642e+02
3.360360360360360801e+02,1.499805134274643592e+02
3.369369369369369451e+02,1.415013372598710362e+02
3.378378378378378102e+02,1.348833263538121514e+02
3.387387387387387321e+02,1.328594917385429994e+02
3.396396396396396540e+02,1.306472072247808569e+02
3.405405405405405190e+02,1.369999913355933359e+02
3.414414414414414409e+02,1.278827787730012631e+02
3.423423423423423628e+02,1.312227733818749016e+02
3.432432432432432279e+02,1.317968493007128075e+02
3.441441441441441498e+02,1.314508890145947078e+02
3.450450450450450717e+02,1.209072936938240588e+02
3.459459459459459367e+02,1.234338842852951217e+02
3.468468468468468586e+02,1.279632290322901866e+02
3.477477477477477805e+02,1.246775790597841223e+02
3.486486486486486456e+02,1.225586686691944607e+02
3.495495495495495106e+02,1.181892078866916052e+02
3.504504504504504894e+02,1.234151814244399503e+02
3.513513513513513544e+02,1.277225467831093795e+02
3.522522522522522195e+02,1.215568052468216536e+02
3.531531531531531414e+02,1.253921029395980611e+02
3.540540540540540633e+02,1.167113208732587992e+02
3.549549549549549283e+02,1.176610077428479286e+02
3.558558558558558502e+02,1.215453716204810348e+02
3.567567567567567721e+02,1.173434030907553733e+02
3.576576576576576372e+02,1.189046263127126792e+02
3.585585585585585591e+02,1.184303883655917247e+02
3.594594594594594810e+02,1.269886877944946235e+02
3.603603603603603460e+02,1.186757852514181195e+02
3.612612612612612679e+02,1.163974744696889729e+02
3.621621621621621898e+02,1.135057831434377675e+02
3.630630630630630549e+02,1.152091903867967062e+02
3.639639639639639768e+02,1.188040062838058333e+02
3.648648648648648987e+02,1.126220359660980677e+02
3.657657657657657637e+02,1.071804078155779081e+02
3.666666666666666288e+02,1.168276701069227812e+02
3.675675675675676075e+02,1.107917167949360362e+02
3.684684684684684726e+02,1.078054449969868642e+02
3.693693693693693376e+02,1.139499312657841443e+02
3.702702702702702595e+02,1.258198198344097278e+02
3.711711711711711814e+02,1.023448400157188871e+02
3.720720720720720465e+02,1.090744389889765955e+02
3.729729729729729684e+02,1.134029688532245501e+02
3.738738738738738903e+02,1.119826604944049393e+02
3.747747747747747553e+02,1.144949847695712890e+02
3.756756756756756772e+02,1.073429000984225468e+02
3.765765765765765991e+02,1.122613140746115050e+02
3.774774774774774642e+02,1.145500435592384463e+02
3.783783783783783861e+02,1.074828997992499069e+02
3.792792792792793080e+02,1.082309501232815876e+02
3.801801801801801730e+02,1.082373685706533450e+02
3.810810810810810949e+02,1.145681145010049704e+02
3.819819819819820168e+02,1.100310282424877357e+02
3.828828828828828819e+02,1.127707385069658841e+02
3.837837837837837469e+02,1.160923833315388833e+02
3.846846846846847257e+02,1.130870819503714699e+02
3.855855855855855907e+02,1.105249758470250327e+02
3.864864864864864558e+02,1.064473720118168387e+02
3.873873873873873777e+02,1.075414813995608370e+02
3.882882882882882996e+02,1.118683168216635835e+02
3.891891891891891646e+02,1.201183389878217156e+02
3.900900900900900865e+02,1.162915019166474622e+02
3.909909909909910084e+02,1.085474893322613497e+02
3.918918918918918735e+02,1.202744777369914857e+02
3.927927927927927954e+02,1.180575002539023473e+02
3.936936936936937173e+02,1.119531313108304005e+02
3.945945945945945823e+02,1.089665075171952253e+02
3.954954954954955042e+02,1.092672184600723568e+02
3.963963963963964261e+02,1.131926060352638075e+02
3.972972972972972912e+02,1.143468973205803962e+02
3.981981981981982130e+02,1.168578554288021962e+02
3.990990990990991349e+02,1.053798021082036769e+02
4.000000000000000000e+02,1.092459424519217919e+02
4.009009009009008651e+02,1.059617813691870083e+02
4.018018018018018438e+02,1.083521136061987278e+02
4.027027027027027088e+02,1.079643966789090115e+02
4.036036036036035739e+02,1.095071875708016051e+02
4.045045045045044958e+02,1.179972113533271880e+02
4.054054054054054177e+02,1.141999068725268671e+02
4.063063063063062827e+02,1.057293681610202043e+02
4.072072072072072046e+02,1.077602560292096996e+02
4.081081081081081265e+02,1.106569697952307365e+02
4.090090090090089916e+02,1.078819795770620686e+02
4.099099099099099135e+02,1.076667340783195783e+02
4.108108108108108354e+02,1.135983707906355420e+02
4.117117117117117004e+02,1.040025714012825944e+02
4.126126126126126223e+02,1.124282503871752965e+02
4.135135135135135442e+02,1.037511841745866121e+02
4.144144144144144093e+02,1.117437275440858144e+02
4.153153153153153312e+02,1.124074930324335071e+02
4.162162162162162531e+02,1.068973098155928056e+02
4.171171171171171181e+02,1.074470567117186732e+02
4.180180180180179832e+02,1.129675272001191075e+02
4.189189189189189619e+02,1.107473201708447021e+02
4.198198198198198270e+02,1.102735357792149529e+02
4.207207207207206920e+02,1.028035456919508164e+02
4.216216216216216139e+02,1.099362663886344649e+02
4.225225225225225358e+02,1.108896563962862700e+02
4.234234234234234009e+02,1.093150595197410695e+02
4.243243243243243228e+02,1.108313848964616142e+02
4.252252252252252447e+02,1.067029280641435065e+02
4.261261261261261097e+02,1.141751088983330504e+02
4.270270270270270316e+02,1.061993366546971203e+02
4.279279279279279535e+02,1.061699161298411411e+02
4.288288288288288186e+02,9.527218082121490283e+01
4.297297297297297405e+02,1.078159047202230312e+02
4.306306306306306624e+02,1.073700850557233792e+02
4.315315315315315274e+02,1.104828725271954681e+02
4.324324324324324493e+02,1.090155385371986938e+02
4.333333333333333712e+02,1.090813537290175645e+02
4.342342342342342363e+02,1.092005962473264304e+02
4.351351351351351013e+02,1.035876818940693198e+02
4.360360360360360801e+02,1.154602651098773123e+02
4.369369369369369451e+02,1.091749253547255876e+02
4.378378378378378102e+02,1.184922158174194067e+02
4.387387387387387321e+02,1.031792678667356284e+02
4.396396396396396540e+02,1.012402957292465118e+02
4.405405405405405190e+02,1.125430437937799866e+02
4.414414414414414409e+02,1.064725459782068526e+02
4.423423423423423628e+02,1.110527401646943275e+02
4.432432432432432279e+02,1.034825947799851775e+02
4.441441441441441498e+02,1.026776395867535143e+02
4.450450450450450717e+02,1.057987313065442692e+02
4.459459459459459367e+02,1.001974754905684648e+02
4.468468468468468586e+02,1.034124062139800628e+02
4.477477477477477805e+02,1.066319926444702730e+02
4.486486486486486456e+02,1.048905435126142436e+02
4.495495495495495106e+02,1.094937703376944427e+02
4.504504504504504894e+02,9.630641884776909478e+01
4.513513513513513544e+02,1.109277009623294958e+02
4.522522522522522195e+02,1.086333141108422353e+02
4.531531531531531982e+02,1.046891180902634062e+02
4.540540540540540633e+02,1.069456958165639691e+02
4.549549549549549283e+02,1.074611360290247433e+02
4.558558558558558502e+02,1.155570846093600181e+02
4.567567567567567721e+02,1.033577769244613052e+02
4.576576576576576372e+02,1.153766579520901416e+02
4.585585585585585591e+02,1.069460408527934447e+02
4.594594594594594810e+02,1.085344132036680946e+02
4.603603603603603460e+02,1.078968904609610888e+02
4.612612612612612679e+02,1.105447531633760434e+02
4.621621621621621898e+02,1.096479969478271244e+02
4.630630630630630549e+02,1.055060723359430170e+02
4.639639639639639768e+02,1.096825861926078858e+02
4.648648648648648418e+02,1.091064862516179232e+02
4.657657657657657637e+02,1.027372253682923287e+02
4.666666666666666856e+02,1.043977906854686637e+02
4.675675675675675507e+02,1.048581241168162848e+02
4.684684684684684726e+02,1.089992632319303567e+02
4.693693693693693945e+02,1.175504814737407315e+02
4.702702702702702595e+02,1.062733425845229362e+02
4.711711711711711814e+02,1.186847462731378755e+02
4.720720720720721033e+02,1.174368288791260113e+02
4.729729729729729684e+02,1.175584296139579550e+02
4.738738738738738903e+02,1.087782017164355466e+02
4.747747747747747553e+02,1.194074858721071166e+02
4.756756756756756772e+02,1.108167862846144658e+02
4.765765765765765991e+02,1.158816243886877118e+02
4.774774774774774642e+02,1.158065278329605263e+02
4.783783783783783861e+02,1.200665592069577343e+02
4.792792792792793080e+02,1.099215214078012792e+02
4.801801801801801730e+02,1.118736022365112319e+02
4.810810810810810949e+02,1.092669686836584333e+02
4.819819819819819600e+02,1.218923857661900740e+02
4.828828828828828819e+02,1.210816062351092199e+02
4.837837837837838038e+02,1.139328376421841540e+02
4.846846846846846688e+02,1.220689097330336210e+02
4.855855855855855907e+02,1.195670371653045265e+02
4.864864864864865126e+02,1.189696810584462270e+02
4.873873873873873777e+02,1.178629369888521126e+02
4.882882882882882996e+02,1.204603099176796803e+02
4.891891891891892215e+02,1.266942735041478727e+02
4.900900900900900865e+02,1.151701302142504204e+02
4.909909909909910084e+02,1.209860886114312422e+02
4.918918918918918735e+02,1.209016077523475730e+02
4.927927927927927954e+02,1.270350982870826471e+02
4.936936936936937173e+02,1.308031646385769022e+02
4.945945945945945823e+02,1.273460894321880943e+02
4.954954954954955042e+02,1.190768062062176682e+02
4.963963963963964261e+02,1.350271402684576287e+02
4.972972972972972912e+02,1.335017530898196867e+02
4.981981981981982130e+02,1.348868575936563161e+02
4.990990990990990781e+02,1.272798517901085518e+02
5.000000000000000000e+02,1.415794928498280285e+02
5.009009009009009219e+02,1.335283843481922190e+02
5.018018018018017870e+02,1.369553434316595144e+02
5.027027027027027088e+02,1.501186173872475251e+02
5.036036036036036307e+02,1.425440908411818839e+02
5.045045045045044958e+02,1.619738187024480283e+02
5.054054054054054177e+02,1.631767787992296519e+02
5.063063063063062827e+02,1.637253421481624684e+02
5.072072072072072046e+02,1.819946718401961618e+02
5.081081081081081265e+02,1.818502383415174108e+02
5.090090090090089916e+02,1.927876040382528231e+02
5.099099099099099135e+02,2.081802912576229971e+02
5.108108108108108354e+02,2.137336683878347685e+02
5.117117117117117004e+02,2.376619559607781866e+02
5.126126126126125655e+02,2.707752840025656269e+02
5.135135135135135442e+02,3.005656136378699443e+02
5.144144144144144093e+02,3.469653945647174282e+02
5.153153153153152743e+02,4.026964580172834189e+02
5.162162162162162531e+02,4.765381477552742808e+02
5.171171171171171181e+02,5.709470617796569059e+02
5.180180180180179832e+02,6.859333255339769266e+02
5.189189189189189619e+02,8.122006863330701663e+02
5.198198198198198270e+02,8.824793929163299708e+02
5.207207207207206920e+02,9.098245724008029356e+02
5.216216216216216708e+02,8.451296727608429364e+02
5.225225225225225358e+02,7.482419733670475352e+02
5.234234234234234009e+02,6.262564806185271209e+02
5.243243243243243796e+02,5.235400196987238814e+02
5.252252252252252447e+02,4.429542665585648820e+02
5.261261261261261097e+02,3.826174390698315051e+02
5.270270270270270885e+02,3.172457385540066639e+02
5.279279279279279535e+02,2.866731064488554921e+02
5.288288288288288186e+02,2.561491085513970347e+02
5.297297297297297973e+02,2.294562487306605476e+02
5.306306306306306624e+02,2.102965471031449454e+02
5.315315315315315274e+02,1.977957204646381228e+02
5.324324324324325062e+02,1.982373571757520665e+02
5.333333333333332575e+02,1.891013818763663892e+02
5.342342342342342363e+02,1.764941696218736809e+02
5.351351351351352150e+02,1.630745471705303089e+02
5.360360360360359664e+02,1.510314872246635787e+02
5.369369369369369451e+02,1.507448380216279418e+02
5.378378378378379239e+02,1.490991619831907826e+02
5.387387387387386752e+02,1.457317291254869360e+02
5.396396396396396540e+02,1.325345940179608135e+02
5.405405405405405190e+02,1.322470641735158949e+02
5.414414414414413841e+02,1.343814651943394267e+02
5.423423423423423628e+02,1.371220427321431430e+02
5.432432432432432279e+02,1.338547478483788495e+02
5.441441441441440929e+02,1.381403134352814561e+02
5.450450450450450717e+02,1.267193912271984004e+02
5.459459459459459367e+02,1.301184865888253910e+02
5.468468468468468018e+02,1.277232644436239610e+02
5.477477477477477805e+02,1.205887014950030363e+02
5.486486486486486456e+02,1.265467988457768627e+02
5.495495495495495106e+02,1.240986943537023421e+02
5.504504504504504894e+02,1.363629967973031683e+02
5.513513513513513544e+02,1.237302569946556048e+02
5.522522522522522195e+02,1.253657533473991492e+02
5.531531531531531982e+02,1.286515945521992705e+02
5.540540540540540633e+02,1.182926318008696427e+02
5.549549549549549283e+02,1.133965562600483139e+02
5.558558558558559071e+02,1.249390870014051274e+02
5.567567567567567721e+02,1.219882379953365330e+02
5.576576576576576372e+02,1.147942371007874129e+02
5.585585585585586159e+02,1.040520499146242770e+02
5.594594594594594810e+02,1.232134609419523485e+02
5.603603603603603460e+02,1.099543195366397725e+02
5.612612612612613248e+02,1.212178730209837738e+02
5.621621621621621898e+02,1.087929305211179241e+02
5.630630630630630549e+02,1.127528983352580667e+02
5.639639639639640336e+02,1.214215815213954670e+02
5.648648648648647850e+02,1.199228762282917273e+02
5.657657657657657637e+02,1.164018208494660911e+02
5.666666666666667425e+02,1.065219180971128310e+02
5.675675675675674938e+02,1.135391678456147702e+02
5.684684684684684726e+02,1.059456980520445910e+02
5.693693693693694513e+02,1.142199639867386054e+02
5.702702702702702027e+02,1.170501057624683057e+02
5.711711711711711814e+02,1.100585152384152252e+02
5.720720720720721602e+02,1.100425223197019022e+02
5.729729729729729115e+02,1.078206081624017116e+02
5.738738738738738903e+02,1.133963420625022422e+02
5.747747747747747553e+02,1.124234301381578547e+02
5.756756756756756204e+02,1.177601407517542640e+02
5.765765765765765991e+02,1.076989989138984498e+02
5.774774774774774642e+02,1.091117571244311932e+02
5.783783783783783292e+02,1.177258590268451428e+02
5.792792792792793080e+02,1.135164837286559418e+02
5.801801801801801730e+02,1.119769340805547699e+02
5.810810810810810381e+02,1.103733334160900483e+02
5.819819819819820168e+02,1.019820836097702141e+02
5.828828828828828819e+02,1.134030387530169577e+02
5.837837837837837469e+02,1.124203995954839996e+02
5.846846846846847257e+02,1.093929516267060791e+02
5.855855855855855907e+02,1.074069107425027312e+02
5.864864864864864558e+02,1.172374020194092168e+02
5.873873873873874345e+02,1.109467129328424164e+02
5.882882882882882996e+02,1.195764585201100374e+02
5.891891891891891646e+02,1.163217649228359960e+02
5.900900900900901433e+02,1.097086895712841823e+02
5.909909909909910084e+02,1.051824287651983099e+02
5.918918918918918735e+02,1.114692900243993847e+02
5.927927927927928522e+02,1.106425187646949553e+02
5.936936936936937173e+02,1.120885301497745559e+02
5.945945945945945823e+02,1.133639386543339782e+02
5.954954954954955610e+02,1.090266370622175600e+02
5.963963963963964261e+02,1.188921534225133172e+02
5.972972972972972912e+02,1.116187025760158917e+02
5.981981981981982699e+02,1.086084370712589191e+02
5.990990990990990213e+02,1.147852318458282355e+02
6.000000000000000000e+02,1.075888305597235757e+02
6.009009009009009787e+02,1.078224080036052328e+02
6.018018018018017301e+02,1.107953782371245524e+02
6.027027027027027088e+02,1.051403066328564080e+02
6.036036036036036876e+02,1.185445850658573050e+02
6.045045045045044390e+02,1.119388357356289845e+02
6.054054054054054177e+02,1.103165402771056307e+02
6.063063063063063964e+02,1.145530536024818389e+02
6.072072072072071478e+02,1.116942567772628365e+02
6.081081081081081265e+02,1.140909860661111281e+02
6.090090090090089916e+02,1.051843543370742253e+02
6.099099099099098567e+02,1.084796766456242665e+02
6.108108108108108354e+02,1.074080087846789127e+02
6.117117117117117004e+02,1.107132579813065263e+02
6.126126126126125655e+02,1.073748776643010245e+02
6.135135135135135442e+02,1.151160202130988921e+02
6.144144144144144093e+02,1.119611688419769422e+02
6.153153153153152743e+02,1.117300852438258261e+02
6.162162162162162531e+02,1.054885640171249435e+02
6.171171171171171181e+02,1.073163878629864030e+02
6.180180180180179832e+02,1.049490324356412003e+02
6.189189189189189619e+02,1.136635688730874421e+02
6.198198198198198270e+02,1.082633259192878796e+02
6.207207207207206920e+02,1.162124565331668435e+02
6.216216216216216708e+02,1.059116756891386473e+02
6.225225225225225358e+02,1.139501720543708529e+02
6.234234234234234009e+02,9.685799166859794695e+01
6.243243243243243796e+02,1.049455212245024569e+02
6.252252252252252447e+02,9.952209162984914315e+01
6.261261261261261097e+02,1.144235904561747645e+02
6.270270270270270885e+02,1.040699114042889022e+02
6.279279279279279535e+02,1.127577798625336953e+02
6.288288288288288186e+02,1.154959261866983695e+02
6.297297297297297973e+02,1.033631001396759075e+02
6.306306306306306624e+02,1.131597036374411402e+02
6.315315315315315274e+02,1.138613850794379374e+02
6.324324324324325062e+02,1.098624785564035733e+02
6.333333333333332575e+02,1.049193913236105971e+02
6.342342342342342363e+02,1.112387057336555216e+02
6.351351351351352150e+02,1.041409163525213870e+02
6.360360360360359664e+02,1.139150921861387218e+02
6.369369369369369451e+02,1.139037796966365192e+02
6.378378378378379239e+02,1.092022838312310142e+02
6.387387387387386752e+02,1.069908633939900540e+02
6.396396396396396540e+02,1.089435550210403676e+02
6.405405405405405190e+02,1.182801746457303409e+02
6.414414414414413841e+02,1.097822132564143089e+02
6.423423423423423628e+02,1.127969742991620450e+02
6.432432432432432279e+02,1.163311900927701004e+02
6.441441441441440929e+02,1.045691343223727756e+02
6.450450450450450717e+02,1.144501502575208605e+02
6.459459459459459367e+02,1.169409175421040032e+02
6.468468468468468018e+02,1.198683060096476538e+02
6.477477477477477805e+02,1.074120551832314163e+02
6.486486486486486456e+02,1.109445068025903396e+02
6.495495495495495106e+02,1.170748665537465740e+02
6.504504504504504894e+02,1.064394977854867221e+02
6.513513513513513544e+02,1.098911887494874122e+02
6.522522522522522195e+02,1.093577344678209045e+02
6.531531531531531982e+02,1.143836241783219947e+02
6.540540540540540633e+02,1.112299303990680954e+02
6.549549549549549283e+02,1.040273436643679048e+02
6.558558558558559071e+02,1.066652411024672915e+02
6.567567567567567721e+02,1.186346033445555292e+02
6.576576576576576372e+02,1.080648373281931640e+02
6.585585585585586159e+02,1.099383458945643071e+02
6.594594594594594810e+02,1.165505259209239028e+02
6.603603603603603460e+02,1.118360639564738079e+02
6.612612612612613248e+02,1.182970140526167739e+02
6.621621621621621898e+02,1.091419351328770944e+02
6.630630630630630549e+02,1.072915371627994290e+02
6.639639639639640336e+02,1.078734603095535363e+02
6.648648648648648987e+02,1.056582025294523532e+02
6.657657657657657637e+02,1.094061034468944058e+02
6.666666666666667425e+02,9.404126152250421455e+01
6.675675675675674938e+02,1.066787466116851846e+02
6.684684684684684726e+02,1.130247432815942119e+02
6.693693693693694513e+02,1.067424346690032451e+02
6.702702702702702027e+02,1.067874107367624958e+02
6.711711711711711814e+02,1.122830679128984599e+02
6.720720720720721602e+02,1.126159716911129607e+02
6.729729729729729115e+02,1.050312476191859332e+02
6.738738738738738903e+02,1.138910157269231576e+02
6.747747747747747553e+02,1.097934925098831371e+02
6.756756756756756204e+02,1.101720073623878875e+02
6.765765765765765991e+02,1.114163657203470876e+02
6.774774774774774642e+02,1.212382410479645500e+02
6.783783783783783292e+02,1.116233427942665628e+02
6.792792792792793080e+02,1.061635061788815477e+02
6.801801801801801730e+02,1.027809208956717271e+02
6.810810810810810381e+02,1.070637142909277060e+02
6.819819819819820168e+02,1.128361044511081843e+02
6.828828828828828819e+02,1.111662623178537643e+02
6.837837837837837469e+02,1.022063295606842388e+02
6.846846846846847257e+02,1.081207516006100064e+02
6.855855855855855907e+02,1.088812230989212537e+02
6.864864864864864558e+02,1.181908498979419733e+02
6.873873873873874345e+02,1.024595371427199808e+02
6.882882882882882996e+02,1.092935891345844368e+02
6.891891891891891646e+02,1.119944507718368101e+02
6.900900900900901433e+02,1.057765532321345461e+02
6.909909909909910084e+02,1.071752971428983869e+02
6.918918918918918735e+02,1.057572805393524646e+02
6.927927927927928522e+02,1.000222466779851800e+02
6.936936936936937173e+02,1.016168016147591544e+02
6.945945945945945823e+02,1.087990771367356473e+02
6.954954954954955610e+02,1.036514872616652809e+02
6.963963963963964261e+02,1.147874456497166875e+02
6.972972972972972912e+02,1.130607586497391708e+02
6.981981981981982699e+02,1.171623938609409663e+02
6.990990990990990213e+02,1.162372302976546479e+02
7.000000000000000000e+02,1.175708521735460295e+02
7.009009009009009787e+02,1.069086333726033473e+02
7.018018018018017301e+02,1.169694373753533938e+02
7.027027027027027088e+02,1.072863198406506484e+02
7.036036036036036876e+02,1.107648627719040206e+02
7.045045045045044390e+02,1.109493676060438503e+02
7.054054054054054177e+02,1.115602645451162402e+02
7.063063063063063964e+02,1.041479172497729735e+02
7.072072072072071478e+02,1.101381932205856202e+02
7.081081081081081265e+02,1.127278660372441692e+02
7.090090090090089916e+02,1.082847895082000349e+02
7.099099099099098567e+02,1.143524009753108430e+02
7.108108108108108354e+02,1.079948021533351579e+02
7.117117117117117004e+02,1.053853851574210836e+02
7.126126126126125655e+02,1.003599827116808143e+02
7.135135135135135442e+02,1.105873716834657472e+02
7.144144144144144093e+02,1.079833064671887115e+02
7.153153153153152743e+02,1.042153879122816136e+02
7.162162162162162531e+02,1.104885748598637178e+02
7.171171171171171181e+02,1.058188902975917784e+02
7.180180180180179832e+02,1.082743443856361978e+02
7.189189189189189619e+02,1.086929632952186751e+02
7.198198198198198270e+02,1.113315158167940240e+02
7.207207207207206920e+02,1.068460908525315745e+02
7.216216216216216708e+02,1.037657939100942173e+02
7.225225225225225358e+02,1.246241192667578304e+02
7.234234234234234009e+02,1.139474201045109538e+02
7.243243243243243796e+02,1.059331917844219930e+02
7.252252252252252447e+02,1.136408216002475200e+02
7.261261261261261097e+02,1.207778099368792653e+02
7.270270270270270885e+02,1.159495320538804464e+02
7.279279279279279535e+02,1.054018988441632132e+02
7.288288288288288186e+02,1.126390244251785901e+02
7.297297297297296836e+02,1.133667303699476605e+02
7.306306306306306624e+02,1.189570141334022395e+02
7.315315315315315274e+02,1.048969285870986283e+02
7.324324324324323925e+02,1.109133139122874496e+02
7.333333333333333712e+02,1.144938229610089309e+02
7.342342342342342363e+02,1.098229764351281261e+02
7.351351351351351013e+02,1.140149534642264229e+02
7.360360360360360801e+02,1.080160148559020570e+02
7.369369369369369451e+02,1.182938576153808867e+02
7.378378378378378102e+02,1.070216914200292280e+02
7.387387387387387889e+02,1.173906125692051461e+02
7.396396396396396540e+02,1.136259755599142096e+02
7.405405405405405190e+02,1.067702094366780585e+02
7.414414414414414978e+02,1.052040762073531681e+02
7.423423423423423628e+02,1.177123727680762499e+02
7.432432432432432279e+02,1.056168613302103694e+02
7.441441441441442066e+02,1.148914318387231361e+02
7.450450450450450717e+02,1.105177876158657710e+02
7.459459459459459367e+02,1.059840048579768137e+02
7.468468468468468018e+02,1.176385138736940092e+02
7.477477477477477805e+02,1.082338323017846307e+02
7.486486486486486456e+02,1.080467782933017844e+02
7.495495495495495106e+02,1.124185806706516360e+02
7.504504504504504894e+02,1.092852458988693911e+02
7.513513513513513544e+02,1.129107803176084559e+02
7.522522522522522195e+02,1.108625387908851110e+02
7.531531531531531982e+02,1.027372106856801111e+02
7.540540540540540633e+02,1.157112844492189083e+02
7.549549549549549283e+02,1.124330920877341811e+02
7.558558558558559071e+02,1.110586087577554650e+02
7.567567567567567721e+02,1.070875841980686545e+02
7.576576576576576372e+02,1.073656607847989335e+02
7.585585585585586159e+02,1.119987055200644051e+02
7.594594594594594810e+02,1.067771138047669126e+02
7.603603603603603460e+02,1.150866739969583392e+02
7.612612612612613248e+02,1.197701529183244276e+02
7.621621621621621898e+02,1.075179697999049608e+02
7.630630630630630549e+02,1.160170459540030237e+02
7.639639639639639199e+02,1.160996906112556957e+02
7.648648648648648987e+02,1.159480025764829065e+02
7.657657657657657637e+02,1.073543530004259310e+02
7.666666666666666288e+02,1.115537301010217845e+02
7.675675675675676075e+02,1.151932434184071781e+02
7.684684684684684726e+02,1.073200217970106962e+02
7.693693693693693376e+02,1.080227275146745569e+02
7.702702702702703164e+02,1.054346002595984402e+02
7.711711711711711814e+02,1.155154751983967429e+02
7.720720720720720465e+02,1.154344622282149970e+02
7.729729729729730252e+02,1.107702564026996157e+02
7.738738738738738903e+02,1.113142800150038170e+02
7.747747747747747553e+02,1.214415758745293061e+02
7.756756756756757341e+02,1.086143765020140250e+02
7.765765765765765991e+02,1.043178581557710913e+02
7.774774774774774642e+02,1.140809938607325051e+02
7.783783783783784429e+02,1.095161595299508122e+02
7.792792792792793080e+02,1.151635882725669688e+02
7.801801801801801730e+02,1.153674095267787010e+02
7.810810810810810381e+02,1.106037530554820592e+02
7.819819819819820168e+02,1.155089238310306143e+02
7.828828828828828819e+02,1.155752698319257377e+02
7.837837837837837469e+02,1.043769492126383085e+02
7.846846846846847257e+02,1.088600646129651892e+02
7.855855855855855907e+02,1.135373454695929212e+02
7.864864864864864558e+02,1.158245522142962756e+02
7.873873873873874345e+02,1.141277699127658138e+02
7.882882882882882996e+02,1.062095544653622454e+02
7.891891891891891646e+02,1.181406383974474608e+02
7.900900900900901433e+02,1.138577337671231362e+02
7.909909909909910084e+02,1.088550613159966787e+02
7.918918918918918735e+02,1.199093410206601220e+02
7.927927927927928522e+02,1.122042850330154096e+02
7.936936936936937173e+02,1.075164132486712134e+02
7.945945945945945823e+02,1.117701332133053853e+02
7.954954954954954474e+02,1.064671135733737515e+02
7.963963963963964261e+02,1.062286122023847383e+02
7.972972972972972912e+02,1.143626298876116323e+02
7.981981981981981562e+02,1.125318581334131238e+02
7.990990990990991349e+02,1.102239194522665002e+02
8.000000000000000000e+02,1.078160277106945415e+02
8.009009009009008651e+02,1.082964290617423160e+02
8.018018018018018438e+02,1.138691641319812220e+02
8.027027027027027088e+02,1.150488279346043896e+02
8.036036036036035739e+02,1.083004633215722663e+02
8.045045045045045526e+02,1.102369249402852063e+02
8.054054054054054177e+02,1.058551670555327320e+02
8.063063063063062827e+02,1.107098937884657062e+02
8.072072072072072615e+02,1.123955822490276972e+02
8.081081081081081265e+02,1.125893169291607308e+02
8.090090090090089916e+02,1.132434027202529023e+02
8.099099099099099703e+02,1.094502899598124088e+02
8.108108108108108354e+02,1.078912866775486776e+02
8.117117117117117004e+02,1.179109572621096476e+02
8.126126126126125655e+02,1.094320133765702678e+02
8.135135135135135442e+02,1.140387915125405698e+02
8.144144144144144093e+02,1.113428265901420104e+02
8.153153153153152743e+02,1.157392831413793743e+02
8.162162162162162531e+02,1.121934886949567129e+02
8.171171171171171181e+02,1.215557565174743502e+02
8.180180180180179832e+02,1.043501495112193993e+02
8.189189189189189619e+02,1.180784082693282926e+02
8.198198198198198270e+02,1.142073451203338124e+02
8.207207207207206920e+02,1.178837403807093978e+02
8.216216216216216708e+02,1.169653080406669687e+02
8.225225225225225358e+02,1.173955711546920639e+02
8.234234234234234009e+02,1.099953415826079066e+02
8.243243243243243796e+02,1.128689694025558623e+02
8.252252252252252447e+02,1.060598129668327232e+02
8.261261261261261097e+02,1.135901372341048159e+02
8.270270270270270885e+02,1.228004048493150009e+02
8.279279279279279535e+02,1.174841434739240214e+02
8.288288288288288186e+02,1.187890013686670869e+02
8.297297297297296836e+02,1.174695976022116355e+02
8.306306306306306624e+02,1.114778216316740753e+02
8.315315315315315274e+02,1.146391046475137756e+02
8.324324324324323925e+02,1.169038317535561475e+02
8.333333333333333712e+02,1.115530553790765111e+02
8.342342342342342363e+02,1.216226488400341168e+02
8.351351351351351013e+02,1.099674232869883497e+02
8.360360360360360801e+02,1.045769829313412487e+02
8.369369369369369451e+02,1.178367774582823273e+02
8.378378378378378102e+02,1.138459894536147488e+02
8.387387387387387889e+02,1.130153609616723998e+02
8.396396396396396540e+02,1.037830427241626978e+02
8.405405405405405190e+02,1.169664278601223089e+02
8.414414414414414978e+02,1.157669711675716400e+02
8.423423423423423628e+02,1.158577915630152546e+02
8.432432432432432279e+02,1.075907819122465128e+02
8.441441441441442066e+02,1.145976718980557081e+02
8.450450450450450717e+02,1.199413177426858681e+02
8.459459459459459367e+02,1.185124845462478760e+02
8.468468468468468018e+02,1.122653492047716810e+02
8.477477477477477805e+02,1.144146239677964587e+02
8.486486486486486456e+02,1.188542610159003203e+02
8.495495495495495106e+02,1.100924636611873524e+02
8.504504504504504894e+02,1.090093903801005126e+02
8.513513513513513544e+02,1.087174657801958233e+02
8.522522522522522195e+02,1.133507421295625903e+02
8.531531531531531982e+02,1.173326997016911406e+02
8.540540540540540633e+02,1.125800530188168977e+02
8.549549549549549283e+02,1.142336243962344611e+02
8.558558558558559071e+02,1.052872400452252606e+02
8.567567567567567721e+02,1.108142974417078790e+02
8.576576576576576372e+02,1.061898390083055119e+02
8.585585585585586159e+02,1.082903441045774287e+02
8.594594594594594810e+02,1.071469199496045803e+02
8.603603603603603460e+02,1.119613683939390114e+02
8.612612612612613248e+02,1.087161073844290229e+02
8.621621621621621898e+02,1.099552245336950023e+02
8.630630630630630549e+02,1.124643992923390101e+02
8.639639639639639199e+02,1.109272200537945565e+02
8.648648648648648987e+02,1.025225105972977815e+02
8.657657657657657637e+02,1.144344707202863987e+02
8.666666666666666288e+02,1.169425784184888926e+02
8.675675675675676075e+02,1.135906487312225579e+02
8.684684684684684726e+02,1.158269885890929061e+02
8.693693693693693376e+02,1.144335154819922167e+02
8.702702702702703164e+02,1.083499355721586284e+02
8.711711711711711814e+02,1.066271571924619650e+02
8.720720720720720465e+02,1.099353351605965514e+02
8.729729729729730252e+02,1.141160055510280529e+02
8.738738738738738903e+02,1.135376703531332367e+02
8.747747747747747553e+02,1.095205071493732021e+02
8.756756756756757341e+02,1.101312440150529852e+02
8.765765765765765991e+02,1.148237054962811214e+02
8.774774774774774642e+02,1.106693379703256142e+02
8.783783783783784429e+02,1.135642977806727032e+02
8.792792792792793080e+02,1.108941260003888658e+02
8.801801801801801730e+02,1.127724246575035352e+02
8.810810810810810381e+02,1.105943454540534674e+02
8.819819819819820168e+02,1.131604393643291502e+02
8.828828828828828819e+02,1.160703772586168441e+02
8.837837837837837469e+02,1.227437714129711139e+02
8.846846846846847257e+02,1.207880059513341138e+02
8.855855855855855907e+02,1.146927823763127492e+02
8.864864864864864558e+02,1.135060199546573614e+02
8.873873873873874345e+02,1.179966468875328474e+02
8.882882882882882996e+02,1.226757718041522907e+02
8.891891891891891646e+02,1.205757955413718037e+02
8.900900900900901433e+02,1.118965517069485713e+02
8.909909909909910084e+02,1.241173943673486377e+02
8.918918918918918735e+02,1.113112679806439758e+02
8.927927927927928522e+02,1.230766080251393078e+02
8.936936936936937173e+02,1.152466333489619785e+02
8.945945945945945823e+02,1.176145929869258282e+02
8.954954954954955610e+02,1.234884776319426578e+02
8.963963963963964261e+02,1.155976811188484277e+02
8.972972972972972912e+02,1.177728478396861931e+02
8.981981981981981562e+02,1.248827514447037572e+02
8.990990990990991349e+02,1.201850866852820445e+02
9.000000000000000000e+02,1.271231429281967564e+02
9.009009009009008651e+02,1.093250843416678748e+02
9.018018018018018438e+02,1.169452663509170378e+02
9.027027027027027088e+02,1.253310390427473493e+02
9.036036036036035739e+02,1.239285378734017371e+02
9.045045045045045526e+02,1.297633145399249202e+02
9.054054054054054177e+02,1.215815392503204890e+02
9.063063063063062827e+02,1.267217836213000624e+02
9.072072072072072615e+02,1.254715394986586006e+02
9.081081081081081265e+02,1.293237820755809935e+02
9.090090090090089916e+02,1.342353090484932636e+02
9.099099099099099703e+02,1.358739718053351169e+02
9.108108108108108354e+02,1.373391827602489741e+02
9.117117117117117004e+02,1.393311494104044357e+02
9.126126126126126792e+02,1.420017062651209301e+02
9.135135135135135442e+02,1.436702949158940612e+02
9.144144144144144093e+02,1.470634651853393393e+02
9.153153153153152743e+02,1.419096384276482183e+02
9.162162162162162531e+02,1.525133255832963357e+02
9.171171171171171181e+02,1.489367675286335384e+02
9.180180180180179832e+02,1.636353551308492627e+02
9.189189189189189619e+02,1.619707989390948626e+02
9.198198198198198270e+02,1.609340086506003900e+02
9.207207207207206920e+02,1.820568484679730830e+02
9.216216216216216708e+02,1.812770254124069425e+02
9.225225225225225358e+02,1.865383221201770425e+02
9.234234234234234009e+02,1.861203519084760956e+02
9.243243243243243796e+02,1.988558297884326862e+02
9.252252252252252447e+02,1.908276218596833189e+02
9.261261261261261097e+02,1.875471210551896775e+02
9.270270270270270885e+02,2.104440964736361082e+02
9.279279279279279535e+02,2.157199595522507423e+02
9.288288288288288186e+02,2.106774500676873458e+02
9.297297297297296836e+02,2.136595998954601612e+02
9.306306306306306624e+02,2.241319577839951194e+02
9.315315315315315274e+02,2.280079939512376086e+02
9.324324324324323925e+02,2.411236080864676978e+02
9.333333333333333712e+02,2.290367267312452952e+02
9.342342342342342363e+02,2.429646057321982937e+02
9.351351351351351013e+02,2.472577978472135385e+02
9.360360360360360801e+02,2.482132000296288936e+02
9.369369369369369451e+02,2.413921925468396239e+02
9.378378378378378102e+02,2.543719940994411104e+02
9.387387387387387889e+02,2.542144422198418567e+02
9.396396396396396540e+02,2.576811032870934355e+02
9.405405405405405190e+02,2.600042095458022118e+02
9.414414414414414978e+02,2.619664834665389321e+02
9.423423423423423628e+02,2.612400507070319122e+02
9.432432432432432279e+02,2.596956676532586243e+02
9.441441441441442066e+02,2.589744951081688100e+02
9.450450450450450717e+02,2.673872323964616839e+02
9.459459459459459367e+02,2.650478580843110876e+02
9.468468468468468018e+02,2.651136132263634408e+02
9.477477477477477805e+02,2.677027144574723252e+02
9.486486486486486456e+02,2.587972953305909414e+02
9.495495495495495106e+02,2.643964432513882343e+02
9.504504504504504894e+02,2.552956686827971282e+02
9.513513513513513544e+02,2.626047284905518495e+02
9.522522522522522195e+02,2.570916356733951034e+02
9.531531531531531982e+02,2.475625313528551601e+02
9.540540540540540633e+02,2.525595471308969309e+02
9.549549549549549283e+02,2.451245008898667663e+02
9.558558558558559071e+02,2.397067351279963532e+02
9.567567567567567721e+02,2.305086737763886902e+02
9.576576576576576372e+02,2.269116878185378994e+02
9.585585585585586159e+02,2.345089632073597272e+02
9.594594594594594810e+02,2.282246321708411472e+02
9.603603603603603460e+02,2.178727736514688331e+02
9.612612612612613248e+02,2.138060120590741917e+02
9.621621621621621898e+02,2.089680775020125623e+02
9.630630630630630549e+02,2.108822707597704209e+02
9.639639639639639199e+02,1.989277408339601720e+02
9.648648648648648987e+02,2.014314144639729136e+02
9.657657657657657637e+02,1.913015379355047969e+02
9.666666666666666288e+02,1.796338234715946669e+02
9.675675675675676075e+02,1.887946694793260747e+02
9.684684684684684726e+02,1.755270751491248404e+02
9.693693693693693376e+02,1.814635928257359865e+02
9.702702702702703164e+02,1.693472088051478863e+02
9.711711711711711814e+02,1.652122526949241035e+02
9.720720720720720465e+02,1.624351089408510802e+02
9.729729729729730252e+02,1.538053362772558899e+02
9.738738738738738903e+02,1.622807262469974887e+02
9.747747747747747553e+02,1.514009848162547200e+02
9.756756756756757341e+02,1.528165225225010602e+02
9.765765765765765991e+02,1.462726944307815415e+02
9.774774774774774642e+02,1.420422598966131886e+02
9.783783783783784429e+02,1.315932628027082387e+02
9.792792792792793080e+02,1.326051611085851789e+02
9.801801801801801730e+02,1.406993776236197675e+02
9.810810810810810381e+02,1.365129601018357732e+02
9.819819819819820168e+02,1.331518865617575216e+02
9.828828828828828819e+02,1.365596346102280165e+02
9.837837837837837469e+02,1.272913248710676299e+02
9.846846846846847257e+02,1.261145130829285677e+02
9.855855855855855907e+02,1.247488162529456019e+02
9.864864864864864558e+02,1.331623731694760977e+02
9.873873873873874345e+02,1.254689758214820898e+02
9.882882882882882996e+02,1.223492262503702790e+02
9.891891891891891646e+02,1.322596149484428736e+02
9.900900900900901433e+02,1.203749772099813669e+02
9.909909909909910084e+02,1.251060035592925743e+02
9.918918918918918735e+02,1.270170911979186883e+02
9.927927927927928522e+02,1.216036950036053668e+02
9.936936936936937173e+02,1.278912228261864783e+02
9.945945945945945823e+02,1.209292249184234294e+02
9.954954954954955610e+02,1.151306688968401772e+02
9.963963963963964261e+02,1.159831552422859744e+02
9.972972972972972912e+02,1.250200498991099352e+02
9.981981981981981562e+02,1.212565666580545098e+02
9.990990990990991349e+02,1.194936153674023132e+02
1.000000000000000000e+03,1.130885860428522278e+02
1.000900900900900865e+03,1.147060399179434569e+02
1.001801801801801844e+03,1.248258995223283705e+02
1.002702702702702709e+03,1.200861285598843011e+02
1.003603603603603574e+03,1.198459060491671551e+02
1.004504504504504553e+03,1.182529825288228125e+02
1.005405405405405418e+03,1.153208589373227113e+02
1.006306306306306283e+03,1.186550108276101412e+02
1.007207207207207261e+03,1.170099162031613673e+02
1.008108108108108127e+03,1.219995201084657452e+02
1.009009009009008992e+03,1.146486740099858110e+02
1.009909909909909970e+03,1.128877882264333010e+02
1.010810810810810835e+03,1.242585838773468367e+02
1.011711711711711700e+03,1.266413406567475022e+02
1.012612612612612679e+03,1.159353178477788902e+02
1.013513513513513544e+03,1.119977077346898113e+02
1.014414414414414409e+03,1.157940642434690091e+02
1.015315315315315274e+03,1.197226657411932962e+02
1.016216216216216253e+03,1.140893416269382215e+02
1.017117117117117118e+03,1.181096568796750859e+02
1.018018018018017983e+03,1.108114506421311347e+02
1.018918918918918962e+03,1.196942952493365340e+02
1.019819819819819827e+03,1.176364112216925690e+02
1.020720720720720692e+03,1.126412935287640096e+02
1.021621621621621671e+03,1.150638043327515874e+02
1.022522522522522536e+03,1.188951986578927347e+02
1.023423423423423401e+03,1.237064934478713099e+02
1.024324324324324380e+03,1.196795425670017607e+02
1.025225225225225131e+03,1.176914908665580413e+02
1.026126126126126110e+03,1.187604276489446704e+02
1.027027027027027088e+03,1.231519078673974548e+02
1.027927927927928067e+03,1.173214882005060815e+02
1.028828828828828819e+03,1.207897573344924638e+02
1.029729729729729797e+03,1.155952516558449759e+02
1.030630630630630549e+03,1.158473636107240878e+02
1.031531531531531527e+03,1.234975192764170373e+02
1.032432432432432506e+03,1.212403436943971542e+02
1.033333333333333485e+03,1.184267959494399634e+02
1.034234234234234236e+03,1.142781200308038478e+02
1.035135135135134988e+03,1.118385045053204436e+02
1.036036036036035966e+03,1.193733373876155213e+02
1.036936936936936945e+03,1.179402752435088502e+02
1.037837837837837924e+03,1.148728000959616367e+02
1.038738738738738903e+03,1.125849172028664924e+02
1.039639639639639654e+03,1.159754200540326678e+02
1.040540540540540405e+03,1.217068634614871030e+02
1.041441441441441384e+03,1.255250671312023201e+02
1.042342342342342363e+03,1.066648450410109490e+02
1.043243243243243342e+03,1.184905997973247196e+02
1.044144144144144320e+03,1.221431917555475621e+02
1.045045045045045072e+03,1.116309818731821792e+02
1.045945945945945823e+03,1.270069832126354470e+02
1.046846846846846802e+03,1.207827369809515687e+02
1.047747747747747781e+03,1.204352569618162505e+02
1.048648648648648759e+03,1.218708015676724017e+02
1.049549549549549511e+03,1.212253990236865349e+02
1.050450450450450489e+03,1.169436004367229174e+02
1.051351351351351241e+03,1.187256498558672035e+02
1.052252252252252219e+03,1.199219865860879395e+02
1.053153153153153198e+03,1.127657984561469675e+02
1.054054054054054177e+03,1.167989644963530367e+02
1.054954954954954928e+03,1.293429202109459197e+02
1.055855855855855907e+03,1.195692837387902756e+02
1.056756756756756658e+03,1.097451216768720030e+02
1.057657657657657637e+03,1.124223725882658158e+02
1.058558558558558616e+03,1.114312607623722613e+02
1.059459459459459595e+03,1.218352719981039058e+02
1.060360360360360346e+03,1.187575174137859904e+02
1.061261261261261325e+03,1.124162236386639222e+02
1.062162162162162076e+03,1.127904342150053623e+02
1.063063063063063055e+03,1.203469815707299801e+02
1.063963963963964034e+03,1.137415760334394434e+02
1.064864864864865012e+03,1.125379802139460566e+02
1.065765765765765764e+03,1.095498548915546451e+02
1.066666666666666515e+03,1.224756063697488173e+02
1.067567567567567494e+03,1.160305359622592505e+02
1.068468468468468473e+03,1.160689679975916277e+02
1.069369369369369451e+03,1.159102221155883541e+02
1.070270270270270430e+03,1.206572927977604479e+02
1.071171171171171181e+03,1.199884570665811765e+02
1.072072072072071933e+03,1.139958441787619421e+02
1.072972972972972912e+03,1.224943189621081814e+02
1.073873873873873890e+03,1.062356290983196203e+02
1.074774774774774869e+03,1.179372085830794532e+02
1.075675675675675848e+03,1.233802345707976258e+02
1.076576576576576599e+03,1.195092383509003326e+02
1.077477477477477350e+03,1.116827760062424630e+02
1.078378378378378329e+03,1.108568434013073301e+02
1.079279279279279308e+03,1.242079675479345440e+02
1.080180180180180287e+03,1.160283016345859153e+02
1.081081081081081038e+03,1.120553436903535385e+02
1.081981981981982017e+03,1.234874956268342316e+02
1.082882882882882768e+03,1.338392290189610208e+02
1.083783783783783747e+03,1.231726676429895946e+02
1.084684684684684726e+03,1.162242852791144685e+02
1.085585585585585704e+03,1.182265678618890092e+02
1.086486486486486456e+03,1.129816334800726736e+02
1.087387387387387435e+03,1.148268311273537705e+02
1.088288288288288186e+03,1.184647699781440338e+02
1.089189189189189165e+03,1.153636297621980873e+02
1.090090090090090143e+03,1.076985056608162381e+02
1.090990990990991122e+03,1.209621390862289587e+02
1.091891891891891873e+03,1.050283723227248487e+02
1.092792792792792852e+03,1.134578840082715772e+02
1.093693693693693604e+03,1.150508600038000679e+02
1.094594594594594582e+03,1.221921517083769118e+02
1.095495495495495561e+03,1.108579108053918247e+02
1.096396396396396540e+03,1.179047645334912602e+02
1.097297297297297291e+03,1.144810179346536501e+02
1.098198198198198043e+03,1.104377704725106639e+02
1.099099099099099021e+03,1.229805563119479075e+02
1.100000000000000000e+03,1.201896551491698943e+02
